[DEFAULT]

version = diffpy.pdfgetx-2.0.0

# input and output specifications
dataformat = QA
inputfile = CeO2.dat
backgroundfile = background.xy
outputtype = iq

# PDF calculation setup
mode = xray
composition = CeO2
bgscale = 1
rpoly = 1.8
qmaxinst = 25
qmin = 1.1
qmax = 25
rmin = 0
rmax = 30
rstep = 0.01

# End of config --------------------------------------------------------------

#### start data
#S 1
#L Q(Ã…$^{-1}$)  intensity(a.u.)
1.1005 5388.36
1.116 5392.65
1.1315 5383.27
1.147 5382.71
1.1625 5383.67
1.178 5383.64
1.1935 5382.73
1.209 5387.84
1.2245 5401.12
1.24 5409.07
1.2555 5413.82
1.271 5417.8
1.2865 5430.53
1.302 5443.63
1.3175 5462.35
1.333 5479.18
1.3485 5510.11
1.364 5534.05
1.3795 5561.31
1.395 5597.18
1.4105 5635.92
1.426 5666.6
1.4415 5701.23
1.457 5742.99
1.4725 5789.24
1.488 5843.69
1.5035 5902.23
1.519 5961.44
1.5345 6031.99
1.55 6104.44
1.5655 6182.41
1.581 6270.63
1.5965 6365.69
1.612 6480.64
1.6275 6615.49
1.643 6756.22
1.6585 6904.75
1.674 7070.58
1.6895 7278.67
1.705 7473.22
1.7205 7714.44
1.736 7990.98
1.7515 8317.11
1.767 8679.73
1.7825 9074.14
1.798 9552.8
1.8135 10085.4
1.829 10707.7
1.8445 11424.5
1.86 12261.3
1.8755 13245.5
1.891 14445.8
1.9065 15951.9
1.922 17959.3
1.9375 20940.9
1.953 26398.5
1.9685 39090.5
1.984 73404.6
1.9995 131940
2.015 141078
2.0305 84590.6
2.046 43475.3
2.0615 27838.3
2.077 21807.6
2.0925 18703.8
2.108 16710.7
2.1235 15272.3
2.139 14254.7
2.1545 13398.3
2.17 12800.6
2.1855 12382
2.201 12090
2.2165 11975.7
2.232 12069
2.2475 12493
2.263 13584.6
2.2785 16796.8
2.294 26044.1
2.3095 41853.2
2.325 44971.5
2.3405 29907
2.356 17637.5
2.3715 12664
2.387 10692.5
2.4025 9599.92
2.418 8881.18
2.4335 8356.25
2.449 7930.02
2.4645 7571.1
2.48 7252.59
2.4955 6993.01
2.511 6770.75
2.5265 6575.09
2.542 6420.7
2.5575 6269.74
2.573 6143.6
2.5885 6030.69
2.604 5925.86
2.6195 5841.49
2.635 5767.13
2.6505 5705.5
2.666 5646.47
2.6815 5605.27
2.697 5575.65
2.7125 5539.37
2.728 5518.19
2.7435 5496.76
2.759 5488.96
2.7745 5488.87
2.79 5484.79
2.8055 5499.86
2.821 5513.94
2.8365 5546.56
2.852 5576.27
2.8675 5613.82
2.883 5657.52
2.8985 5708.24
2.914 5770.17
2.9295 5858.73
2.945 5956.01
2.9605 6064.43
2.976 6173.34
2.9915 6308.38
3.007 6464.63
3.0225 6655.41
3.038 6875.11
3.0535 7114.24
3.069 7409.35
3.0845 7712.41
3.1 8098.17
3.1155 8528.6
3.131 9025.49
3.1465 9622.99
3.162 10329.6
3.1775 11220.8
3.193 12369.8
3.2085 14156.3
3.224 17357.3
3.2395 24829.8
3.255 44226.2
3.2705 77979.5
3.286 89381
3.3015 61043
3.317 32672.8
3.3325 20138.7
3.348 15476.5
3.3635 13208.1
3.379 11847.3
3.3945 10837.9
3.41 10080.9
3.4255 9475.4
3.441 8986.96
3.4565 8588.19
3.472 8248.03
3.4875 7976.46
3.503 7787.03
3.5185 7615.93
3.534 7485.76
3.5495 7403.72
3.565 7368.58
3.5805 7375.08
3.596 7404.58
3.6115 7471.56
3.627 7572.36
3.6425 7748.3
3.658 7941.69
3.6735 8214.73
3.689 8552.62
3.7045 8951.58
3.72 9448.7
3.7355 10064.6
3.751 10872.1
3.7665 11964.6
3.782 13734.9
3.7975 17302
3.813 26399.5
3.8285 48944.9
3.844 77372.8
3.8595 71361.5
3.875 42162.1
3.8905 23829.8
3.906 16558.7
3.9215 13690.1
3.937 12311.4
3.9525 11594.1
3.968 11415.7
3.9835 12483.2
3.999 16273.2
4.0145 21294.4
4.03 20184.3
4.0455 14325.9
4.061 10256.4
4.0765 8544.91
4.092 7736.14
4.1075 7231.94
4.123 6874.5
4.1385 6591.69
4.154 6353.72
4.1695 6146.39
4.185 5981.1
4.2005 5837.32
4.216 5726.74
4.2315 5629.26
4.247 5520.35
4.2625 5440.57
4.278 5365.02
4.2935 5315.65
4.309 5277.09
4.3245 5237.84
4.34 5210.42
4.3555 5192.23
4.371 5174.43
4.3865 5165.65
4.402 5166.45
4.4175 5183.02
4.433 5204.57
4.4485 5234.44
4.464 5268.07
4.4795 5318.44
4.495 5397.49
4.5105 5485.7
4.526 5597.12
4.5415 5750.19
4.557 5953.94
4.5725 6260.48
4.588 6836.32
4.6035 8290.02
4.619 12303
4.6345 18608.4
4.65 19158.2
4.6655 13427.2
4.681 9011.53
4.6965 7206.68
4.712 6535.84
4.7275 6220.48
4.743 6034.43
4.7585 5917.43
4.774 5845.69
4.7895 5804.13
4.805 5788.26
4.8205 5798.25
4.836 5839.11
4.8515 5907.32
4.867 5989.84
4.8825 6112.23
4.898 6270.51
4.9135 6453.95
4.929 6697.53
4.9445 7003.17
4.96 7389.52
4.9755 7899.7
4.991 8669.11
5.0065 10157.4
5.022 13890.3
5.0375 23710.5
5.053 37189.1
5.0685 36264.5
5.084 23691.1
5.0995 14940.8
5.115 11628.3
5.1305 10831.6
5.146 11558.9
5.1615 15096.8
5.177 23197.8
5.1925 28200.4
5.208 21728.3
5.2235 13821.8
5.239 9902.94
5.2545 8363.55
5.27 7601.84
5.2855 7130.52
5.301 6808.2
5.3165 6539.92
5.332 6332.93
5.3475 6176.6
5.363 6047.72
5.3785 5949.16
5.394 5876.09
5.4095 5818.91
5.425 5782.81
5.4405 5769.33
5.456 5785.2
5.4715 5810.86
5.487 5854.2
5.5025 5925.01
5.518 6015.34
5.5335 6137.65
5.549 6299.32
5.5645 6505.64
5.58 6761.55
5.5955 7127.58
5.611 7655.78
5.6265 8564.34
5.642 10716.1
5.6575 16621.5
5.673 28628.9
5.6885 35194.5
5.704 26566.1
5.7195 15938.9
5.735 10675.4
5.7505 8655.5
5.766 7766.28
5.7815 7274.01
5.797 6945.29
5.8125 6719.61
5.828 6544.54
5.8435 6432.84
5.859 6378.66
5.8745 6372.43
5.89 6391.81
5.9055 6471.04
5.921 6621.49
5.9365 6834.43
5.952 7172.88
5.9675 7784.09
5.983 9136.36
5.9985 12877.9
6.014 21735.4
6.0295 29876
6.045 25485
6.0605 15789.8
6.076 10203.4
6.0915 8074.88
6.107 7166.67
6.1225 6665.9
6.138 6314.47
6.1535 6045.25
6.169 5846.53
6.1845 5680.31
6.2 5528.59
6.2155 5413.4
6.231 5321.5
6.2465 5248.34
6.262 5190.18
6.2775 5137.93
6.293 5097.08
6.3085 5066.44
6.324 5050.08
6.3395 5047.45
6.355 5049.75
6.3705 5056.67
6.386 5078.49
6.4015 5116.48
6.417 5152.22
6.4325 5203.23
6.448 5275.35
6.4635 5359.44
6.479 5486.18
6.4945 5681.78
6.51 6037.77
6.5255 6868.62
6.541 9064.47
6.5565 12818.6
6.572 13823.7
6.5875 10730
6.603 7849.72
6.6185 6602.13
6.634 6152.55
6.6495 5974.86
6.665 5918.3
6.6805 5904.86
6.696 5937.92
6.7115 6004.89
6.727 6108.83
6.7425 6271.11
6.758 6494.98
6.7735 6779.44
6.789 7182.02
6.8045 7880.44
6.82 9342.02
6.8355 13218
6.851 22049.6
6.8665 29582.5
6.882 24972.7
6.8975 16131.3
6.913 11502.9
6.9285 10825.6
6.944 13187
6.9595 16789.9
6.975 16042.9
6.9905 11594.5
7.006 8550.69
7.0215 7269.5
7.037 6695.24
7.0525 6360.27
7.068 6115.27
7.0835 5933.18
7.099 5795.75
7.1145 5687.93
7.13 5607.73
7.1455 5555.35
7.161 5521.44
7.1765 5500.92
7.192 5504.4
7.2075 5537.74
7.223 5595.4
7.2385 5685.58
7.254 5814.36
7.2695 6032.62
7.285 6436.17
7.3005 7449.14
7.316 10276.3
7.3315 15177.2
7.347 16871.8
7.3625 12761.7
7.378 8698.32
7.3935 6942.09
7.409 6274.62
7.4245 5960.67
7.44 5781.27
7.4555 5682.3
7.471 5616.89
7.4865 5595.56
7.502 5606.33
7.5175 5661.52
7.533 5770.38
7.5485 5979.35
7.564 6447.94
7.5795 7740.89
7.595 10669.4
7.6105 13307.8
7.626 12136.3
7.6415 9203.05
7.657 7734.67
7.6725 8221.98
7.688 10279.3
7.7035 11320.8
7.719 9454.26
7.7345 7190.27
7.75 6104.92
7.7655 5653.93
7.781 5427.52
7.7965 5282.26
7.812 5180.3
7.8275 5105.01
7.843 5034.27
7.8585 4993.53
7.874 4959.47
7.8895 4929.75
7.905 4918.42
7.9205 4918.28
7.936 4926.4
7.9515 4951.17
7.967 5001.25
7.9825 5084.01
7.998 5286.38
8.0135 5827.04
8.029 6886.12
8.0445 7592.99
8.06 6930.84
8.0755 5946.2
8.091 5445.13
8.1065 5278.59
8.122 5241.15
8.1375 5256.07
8.153 5308.61
8.1685 5385.51
8.184 5494.65
8.1995 5645.14
8.215 5877.64
8.2305 6272.79
8.246 7151.21
8.2615 9466.71
8.277 14056.8
8.2925 16955.7
8.308 14206.8
8.3235 10082.1
8.339 8505.28
8.3545 9170.18
8.37 10163.5
8.3855 9313.82
8.401 7485.99
8.4165 6366.32
8.432 5906.21
8.4475 5688.76
8.463 5559.63
8.4785 5486.75
8.494 5438.61
8.5095 5413.26
8.525 5413.11
8.5405 5438.16
8.556 5489.55
8.5715 5566.56
8.587 5681.75
8.6025 5851.38
8.618 6118.92
8.6335 6644.99
8.649 7970.46
8.6645 11333.2
8.68 16079.5
8.6955 16719.4
8.711 12442.1
8.7265 8694.03
8.742 7087.08
8.7575 6488.9
8.773 6222.4
8.7885 6102.63
8.804 6060.2
8.8195 6090.25
8.835 6200.86
8.8505 6446.97
8.866 7033.82
8.8815 8677.24
8.897 12715.1
8.9125 17361.1
8.928 16849.4
8.9435 11909.7
8.959 8303.72
8.9745 6776.94
8.99 6132.47
9.0055 5791.13
9.021 5561.55
9.0365 5391.33
9.052 5257.15
9.0675 5141.21
9.083 5054.91
9.0985 4993.22
9.114 4935.67
9.1295 4888.43
9.145 4852.08
9.1605 4823.69
9.176 4795.71
9.1915 4785.35
9.207 4783.37
9.2225 4806.13
9.238 4855.49
9.2535 5017.67
9.269 5407.01
9.2845 5804.18
9.3 5710.84
9.3155 5264.24
9.331 4965.68
9.3465 4868.11
9.362 4845.58
9.3775 4858.82
9.393 4880.83
9.4085 4925.43
9.424 4994.23
9.4395 5124.12
9.455 5363.43
9.4705 5957.78
9.486 7192.01
9.5015 8289.98
9.517 8032.39
9.5325 7263.54
9.548 7698.8
9.5635 9291.31
9.579 9811.61
9.5945 8273.13
9.61 6542.53
9.6255 5683.63
9.641 5344.41
9.6565 5177.61
9.672 5085.72
9.6875 5029.75
9.703 5003.78
9.7185 4994.36
9.734 5008.49
9.7495 5043.78
9.765 5104.96
9.7805 5214.66
9.796 5442.28
9.8115 6023.47
9.827 7451.99
9.8425 9492.26
9.858 10005.4
9.8735 8308.59
9.889 6558.49
9.9045 5759.72
9.92 5474.66
9.9355 5368.41
9.951 5338.66
9.9665 5360.53
9.982 5450.35
9.9975 5678.26
10.013 6248.93
10.0285 7715.57
10.044 10001.8
10.0595 10876
10.075 9278.36
10.0905 7573.81
10.106 7234.56
10.1215 7318.1
10.137 6790.94
10.1525 5953.1
10.168 5429.02
10.1835 5194.4
10.199 5073.31
10.2145 4997.93
10.23 4948.89
10.2455 4925.86
10.261 4903.7
10.2765 4908.91
10.292 4926.83
10.3075 4961.71
10.323 5049.83
10.3385 5258.77
10.354 5807.73
10.3695 6835.02
10.385 7553.47
10.4005 7071.97
10.416 6050.31
10.4315 5453.42
10.447 5250.88
10.4625 5198.91
10.478 5219.92
10.4935 5295.41
10.509 5445.9
10.5245 5765.7
10.54 6583.94
10.5555 8470.21
10.571 10698.6
10.5865 10888.5
10.602 9142.9
10.6175 8166.17
10.633 8437.08
10.6485 8271.24
10.664 7110.07
10.6795 6001.49
10.695 5457.57
10.7105 5203.21
10.726 5069.74
10.7415 4978.75
10.757 4905.79
10.7725 4865.99
10.788 4847.42
10.8035 4839.5
10.819 4863.01
10.8345 4939.15
10.85 5163.24
10.8655 5713.52
10.881 6510.36
10.8965 6774.28
10.912 6159.52
10.9275 5408.24
10.943 5026.22
10.9585 4891.01
10.974 4848.72
10.9895 4846.36
11.005 4892.63
11.0205 5021.37
11.036 5402.92
11.0515 6327.1
11.067 7512.45
11.0825 7718.7
11.098 6664.5
11.1135 5579.56
11.129 5047.87
11.1445 4830.51
11.16 4728.89
11.1755 4666.43
11.191 4623.15
11.2065 4592.77
11.222 4579.21
11.2375 4568.46
11.253 4570.73
11.2685 4583.79
11.284 4610.06
11.2995 4646.23
11.315 4711.85
11.3305 4874.65
11.346 5262.68
11.3615 5926.33
11.377 6350.26
11.3925 6022.59
11.408 5392.28
11.4235 5026.04
11.439 4908.4
11.4545 4899.76
11.47 4942.37
11.4855 5048.83
11.501 5307.73
11.5165 5945.25
11.532 7255.56
11.5475 8577.42
11.563 8518.38
11.5785 7383.72
11.594 6680.73
11.6095 6485.66
11.625 6086.35
11.6405 5533.5
11.656 5158.59
11.6715 4989.62
11.687 4912.51
11.7025 4884.78
11.718 4879.05
11.7335 4899.57
11.749 4943.85
11.7645 5021.89
11.78 5183.93
11.7955 5595.65
11.811 6609.58
11.8265 8244.72
11.842 9154.32
11.8575 8250.97
11.873 6649.82
11.8885 5700.35
11.904 5335.03
11.9195 5201.72
11.935 5170.64
11.9505 5242.28
11.966 5532.26
11.9815 6292.78
11.997 7477.47
12.0125 8104.73
12.028 7523.8
12.0435 6675.95
12.059 6328.22
12.0745 6037.42
12.09 5525.31
12.1055 5080.89
12.121 4846.34
12.1365 4723.08
12.152 4652.75
12.1675 4593.75
12.183 4554.27
12.1985 4521.27
12.214 4493.13
12.2295 4475.96
12.245 4461.99
12.2605 4452.08
12.276 4454.01
12.2915 4459.32
12.307 4465.07
12.3225 4474.01
12.338 4496.83
12.3535 4533.21
12.369 4579.71
12.3845 4654.78
12.4 4803.56
12.4155 5151.35
12.431 5817.03
12.4465 6464.79
12.462 6611.43
12.4775 6515.94
12.493 6724.54
12.5085 6782.41
12.524 6185.83
12.5395 5415.31
12.555 4957.08
12.5705 4764.29
12.586 4674.21
12.6015 4628.49
12.617 4606.63
12.6325 4610.93
12.648 4639.58
12.6635 4734.54
12.679 5005.29
12.6945 5614.75
12.71 6323.64
12.7255 6444.22
12.741 5825.3
12.7565 5146.43
12.772 4798.77
12.7875 4668.97
12.803 4637.4
12.8185 4665.99
12.834 4816.08
12.8495 5201.18
12.865 5734.8
12.8805 5917.21
12.896 5514.86
12.9115 4971.73
12.927 4649.7
12.9425 4504.28
12.958 4439.39
12.9735 4403.88
12.989 4388.38
13.0045 4366.89
13.02 4359.88
13.0355 4359.51
13.051 4368.66
13.0665 4377.94
13.082 4408.39
13.0975 4486.23
13.113 4630.88
13.1285 4785.98
13.144 4822.88
13.1595 4724.37
13.175 4627.93
13.1905 4610.2
13.206 4655.06
13.2215 4767.86
13.237 5019.14
13.2525 5614.73
13.268 6725.07
13.2835 7772.53
13.299 7790.72
13.3145 7012.69
13.33 6363.9
13.3455 5953.48
13.361 5467.54
13.3765 5041.36
13.392 4799.38
13.4075 4687.41
13.423 4626.86
13.4385 4601.73
13.454 4591.23
13.4695 4612.45
13.485 4691.55
13.5005 4904.55
13.516 5346.39
13.5315 5818.93
13.547 5869.15
13.5625 5451.69
13.578 4990.98
13.5935 4759.81
13.609 4689.86
13.6245 4714.56
13.64 4847.29
13.6555 5201.76
13.671 5791.63
13.6865 6237.77
13.702 6178.92
13.7175 5879.29
13.733 5659.24
13.7485 5397.95
13.764 5025.31
13.7795 4717.14
13.795 4559.52
13.8105 4486.97
13.826 4443.26
13.8415 4424.19
13.857 4421.05
13.8725 4443.06
13.888 4524.36
13.9035 4714.77
13.919 4978.93
13.9345 5092.97
13.95 4941.45
13.9655 4681.59
13.981 4516.73
13.9965 4458.32
14.012 4468.02
14.0275 4562.82
14.043 4808.28
14.0585 5195.76
14.074 5466.12
14.0895 5392.09
14.105 5143.42
14.1205 4937.95
14.136 4750.26
14.1515 4567.47
14.167 4435.9
14.1825 4372.09
14.198 4354.65
14.2135 4360.78
14.229 4381.48
14.2445 4432.43
14.26 4560.65
14.2755 4873.84
14.291 5412.03
14.3065 5857.18
14.322 5794.77
14.3375 5290.7
14.353 4823.44
14.3685 4607.94
14.384 4559.28
14.3995 4637.97
14.415 4914.31
14.4305 5420.56
14.446 5857.15
14.4615 5785.89
14.477 5269.13
14.4925 4766.63
14.508 4488.28
14.5235 4368.85
14.539 4304.66
14.5545 4260.89
14.57 4235.96
14.5855 4218.18
14.601 4209.98
14.6165 4217.24
14.632 4250.08
14.6475 4346.3
14.663 4504.04
14.6785 4630.71
14.694 4594.45
14.7095 4452.15
14.725 4325.95
14.7405 4266.54
14.756 4263.89
14.7715 4311.76
14.787 4419.97
14.8025 4589.46
14.818 4787.12
14.8335 5013.24
14.849 5274.08
14.8645 5387.04
14.88 5178.88
14.8955 4793.77
14.911 4503.27
14.9265 4367.71
14.942 4313.38
14.9575 4296.99
14.973 4299.06
14.9885 4346.2
15.004 4475.54
15.0195 4714.94
15.035 4966.73
15.0505 5016.04
15.066 4827.34
15.0815 4588.62
15.097 4462.39
15.1125 4458.25
15.128 4575.94
15.1435 4899.31
15.159 5423.8
15.1745 5819.42
15.19 5744.21
15.2055 5324.4
15.221 4913.63
15.2365 4646.31
15.252 4459.95
15.2675 4339.27
15.283 4277.72
15.2985 4236
15.314 4219.48
15.3295 4216.57
15.345 4236.98
15.3605 4294.37
15.376 4408.15
15.3915 4510.29
15.407 4510.45
15.4225 4426
15.438 4343.73
15.4535 4328.82
15.469 4390.64
15.4845 4572.87
15.5 4964.69
15.5155 5460.98
15.531 5742.11
15.5465 5657.37
15.562 5392.75
15.5775 5102.78
15.593 4786.6
15.6085 4511.67
15.624 4333.08
15.6395 4251.97
15.655 4212.59
15.6705 4191.65
15.686 4205.28
15.7015 4284.35
15.717 4450.67
15.7325 4642.49
15.748 4691.55
15.7635 4550.9
15.779 4341.42
15.7945 4203.38
15.81 4156.22
15.8255 4176.71
15.841 4275.13
15.8565 4418.57
15.872 4487.95
15.8875 4403.37
15.903 4239
15.9185 4105.9
15.934 4037.84
15.9495 4009.65
15.965 3988.59
15.9805 3975.34
15.996 3970.23
16.0115 3967.56
16.027 3972.52
16.0425 3990.83
16.058 4019.89
16.0735 4054.61
16.089 4067.62
16.1045 4058.96
16.12 4048.91
16.1355 4070.2
16.151 4128.23
16.1665 4280.09
16.182 4561.52
16.1975 4866.76
16.213 5002.88
16.2285 4923.07
16.244 4745.65
16.2595 4554.7
16.275 4361.27
16.2905 4207.3
16.306 4137.19
16.3215 4108.12
16.337 4110.63
16.3525 4147.86
16.368 4251.12
16.3835 4467.93
16.399 4747.07
16.4145 4885.94
16.43 4757.44
16.4455 4501.99
16.461 4306.35
16.4765 4246.59
16.492 4303.07
16.5075 4498.07
16.523 4759.12
16.5385 4905.88
16.554 4854.44
16.5695 4690.43
16.585 4496.54
16.6005 4313.45
16.616 4168.31
16.6315 4081.74
16.647 4035.46
16.6625 4019.09
16.678 4016.01
16.6935 4034.03
16.709 4087.25
16.7245 4159.05
16.74 4194.58
16.7555 4156.37
16.771 4095.06
16.7865 4064.82
16.802 4080.24
16.8175 4162.45
16.833 4321.49
16.8485 4503.81
16.864 4632.52
16.8795 4662.56
16.895 4593.52
16.9105 4454.7
16.926 4288.44
16.9415 4147.09
16.957 4073.64
16.9725 4044.01
16.988 4056.06
17.0035 4112.1
17.019 4249.71
17.0345 4484.43
17.05 4689.8
17.0655 4705.64
17.081 4512.3
17.0965 4285.03
17.112 4159.24
17.1275 4162.14
17.143 4268.46
17.1585 4441.36
17.174 4542.46
17.1895 4464.77
17.205 4273.44
17.2205 4093.8
17.236 3995.73
17.2515 3949.99
17.267 3926.64
17.2825 3919.23
17.298 3920.28
17.3135 3939.05
17.329 3987.72
17.3445 4091.57
17.36 4191.96
17.3755 4218.74
17.391 4153.26
17.4065 4063.88
17.422 4017.51
17.4375 4065.59
17.453 4220.85
17.4685 4441.85
17.484 4607.29
17.4995 4599.92
17.515 4457.46
17.5305 4276.68
17.546 4109.88
17.5615 3991.91
17.577 3918.22
17.5925 3879.82
17.608 3857.77
17.6235 3854.69
17.639 3874.74
17.6545 3913.6
17.67 3945.29
17.6855 3942.37
17.701 3906.73
17.7165 3868.5
17.732 3860.49
17.7475 3886.78
17.763 3959.91
17.7785 4059.71
17.794 4153.81
17.8095 4196.32
17.825 4179.48
17.8405 4099.84
17.856 3986.03
17.8715 3885.41
17.887 3825.66
17.9025 3796
17.918 3777.95
17.9335 3774.5
17.949 3769.18
17.9645 3769.69
17.98 3772.24
17.9955 3784.5
18.011 3797.35
18.0265 3819.3
18.042 3874.81
18.0575 3999.53
18.073 4170.69
18.0885 4321.22
18.104 4371.04
18.1195 4320.67
18.135 4198.86
18.1505 4069.5
18.166 3960.19
18.1815 3891.86
18.197 3869.03
18.2125 3878.76
18.228 3925.55
18.2435 4036.96
18.259 4187.32
18.2745 4289.79
18.29 4256.65
18.3055 4134.77
18.321 4029.13
18.3365 4013.81
18.352 4122.1
18.3675 4317.03
18.383 4457.03
18.3985 4415.83
18.414 4223.87
18.4295 4018.45
18.445 3888.63
18.4605 3826.43
18.476 3792.51
18.4915 3773.08
18.507 3759.96
18.5225 3753.07
18.538 3755.62
18.5535 3755.99
18.569 3763.46
18.5845 3761.95
18.6 3767.58
18.6155 3777.75
18.631 3830.56
18.6465 3928.53
18.662 4062.06
18.6775 4182.17
18.693 4232.72
18.7085 4197.7
18.724 4096.69
18.7395 3976.29
18.755 3870.04
18.7705 3803.21
18.786 3782.53
18.8015 3794.68
18.817 3850.41
18.8325 3961.17
18.848 4058.45
18.8635 4076.83
18.879 3995.56
18.8945 3874.79
18.91 3797.5
18.9255 3779.89
18.941 3802.95
18.9565 3836.45
18.972 3851.4
18.9875 3831.11
19.003 3786.03
19.0185 3741.06
19.034 3704.65
19.0495 3683.85
19.065 3672.93
19.0805 3675.66
19.096 3692.4
19.1115 3739.64
19.127 3791.84
19.1425 3822.96
19.158 3809.01
19.1735 3774.63
19.189 3752.28
19.2045 3791.74
19.22 3895.78
19.2355 4022.07
19.251 4107.69
19.2665 4110.41
19.282 4039.69
19.2975 3925.61
19.313 3813.68
19.3285 3726.22
19.344 3677.52
19.3595 3661.94
19.375 3668.41
19.3905 3700.25
19.406 3736.34
19.4215 3756.84
19.437 3734.7
19.4525 3692.44
19.468 3663.89
19.4835 3670.3
19.499 3709.6
19.5145 3754.36
19.53 3758.27
19.5455 3723.74
19.561 3662.77
19.5765 3614.52
19.592 3590.28
19.6075 3578.1
19.623 3580.14
19.6385 3578.25
19.654 3590.33
19.6695 3624.72
19.685 3660.04
19.7005 3672.03
19.716 3662.41
19.7315 3640.7
19.747 3645.35
19.7625 3684.1
19.778 3758.63
19.7935 3826.06
19.809 3850.17
19.8245 3824.66
19.84 3762.17
19.8555 3696.61
19.871 3652.98
19.8865 3639.4
19.902 3636.73
19.9175 3666.36
19.933 3738.11
19.9485 3838.83
19.964 3903.68
19.9795 3900.67
19.995 3835.35
20.0105 3779.43
20.026 3793.48
20.0415 3877.42
20.057 3994.77
20.0725 4049.04
20.088 4008.43
20.1035 3895.04
20.119 3775.48
20.1345 3685.44
20.15 3625.98
20.1655 3589
20.181 3576.22
20.1965 3574.28
20.212 3583.55
20.2275 3591.23
20.243 3591.33
20.2585 3579.71
20.274 3570.37
20.2895 3576.98
20.305 3611.4
20.3205 3668.27
20.336 3727.73
20.3515 3750.98
20.367 3735.93
20.3825 3681.26
20.398 3614.79
20.4135 3564.37
20.429 3536.57
20.4445 3523.03
20.46 3533.41
20.4755 3554.91
20.491 3575.42
20.5065 3578.71
20.522 3569.34
20.5375 3555.5
20.553 3561.91
20.5685 3611.19
20.584 3674.14
20.5995 3708.6
20.615 3682.04
20.6305 3613.11
20.646 3542.56
20.6615 3490.57
20.677 3469.27
20.6925 3459.4
20.708 3451.56
20.7235 3462.04
20.739 3474.04
20.7545 3478.94
20.77 3483.78
20.7855 3475.55
20.801 3475.27
20.8165 3493.08
20.832 3541.67
20.8475 3602.03
20.863 3653.26
20.8785 3661.49
20.894 3628.99
20.9095 3574.14
20.925 3518.36
20.9405 3471.59
20.956 3450.22
20.9715 3448.15
20.987 3463.73
21.0025 3482.4
21.018 3495.47
21.0335 3485.49
21.049 3466.57
21.0645 3454.64
21.08 3463.27
21.0955 3497.81
21.111 3534.62
21.1265 3551.53
21.142 3546.83
21.1575 3515.91
21.173 3472.1
21.1885 3435.78
21.204 3421.87
21.2195 3413.13
21.235 3419.47
21.2505 3441.07
21.266 3452.76
21.2815 3461.49
21.297 3460.31
21.3125 3453.99
21.328 3468.86
21.3435 3513.28
21.359 3568.52
21.3745 3593.82
21.39 3577.1
21.4055 3529.4
21.421 3474.12
21.4365 3437.57
21.452 3416.52
21.4675 3415.21
21.483 3437.33
21.4985 3470.54
21.514 3517.79
21.5295 3542.16
21.545 3522.82
21.5605 3490.85
21.576 3463.62
21.5915 3463.1
21.607 3483.36
21.6225 3493.99
21.638 3471.95
21.6535 3433.97
21.669 3393.83
21.6845 3370.95
21.7 3356.95
21.7155 3349.24
21.731 3349.28
21.7465 3353.22
21.762 3355.97
21.7775 3365.22
21.793 3364.67
21.8085 3366.91
21.824 3381.34
21.8395 3414.03
21.855 3453.68
21.8705 3497.29
21.886 3524.47
21.9015 3522.35
21.917 3476.78
21.9325 3432.3
21.948 3395.2
21.9635 3377.1
21.979 3389.86
21.9945 3421.44
22.01 3446.87
22.0255 3455.34
22.041 3440.1
22.0565 3415.47
22.072 3396.74
22.0875 3401.95
22.103 3423.92
22.1185 3429.76
22.134 3418.35
22.1495 3394.42
22.165 3357.67
22.1805 3328.16
22.196 3306.35
22.2115 3294.43
22.227 3284.38
22.2425 3278.89
22.258 3278.47
22.2735 3283.18
22.289 3289
22.3045 3314.96
22.32 3349.23
22.3355 3398.63
22.351 3444.8
22.3665 3451.77
22.382 3423.98
22.3975 3372.23
22.413 3325.75
22.4285 3297.95
22.444 3285.44
22.4595 3289.54
22.475 3309.71
22.4905 3328.99
22.506 3333.94
22.5215 3324.93
22.537 3305.94
22.5525 3289.59
22.568 3286.95
22.5835 3287.79
22.599 3288.69
22.6145 3274.16
22.63 3253.54
22.6455 3231.61
22.661 3225.31
22.6765 3223.85
22.692 3220.69
22.7075 3219.54
22.723 3225.06
22.7385 3228.69
22.754 3232.36
22.7695 3241.95
22.785 3242.28
22.8005 3261.89
22.816 3283.12
22.8315 3301.94
22.847 3309.27
22.8625 3291.77
22.878 3264.96
22.8935 3246.45
22.909 3231.58
22.9245 3236.27
22.94 3245.86
22.9555 3266.53
22.971 3285.44
22.9865 3295.95
23.002 3291.34
23.0175 3282.09
23.033 3295.09
23.0485 3323.58
23.064 3347.16
23.0795 3356.65
23.095 3329.83
23.1105 3287.3
23.126 3252.03
23.1415 3226.67
23.157 3210.14
23.1725 3204.37
23.188 3200.57
23.2035 3203.68
23.219 3205.85
23.2345 3194.88
23.25 3195.29
23.2655 3199.24
23.281 3221.4
23.2965 3238.15
23.312 3255.79
23.3275 3270.27
23.343 3256.84
23.3585 3228.59
23.374 3200.98
23.3895 3181.99
23.405 3177.68
23.4205 3182.78
23.436 3184.34
23.4515 3184.58
23.467 3180.55
23.4825 3184.19
23.498 3194.59
23.5135 3210.8
23.529 3219.82
23.5445 3216.62
23.56 3195.98
23.5755 3172.3
23.591 3155.02
23.6065 3149.87
23.622 3153.99
23.6375 3159.42
23.653 3165.19
23.6685 3171.76
23.684 3179.75
23.6995 3184.41
23.715 3193.15
23.7305 3202.92
23.746 3237.28
23.7615 3263.4
23.777 3258.88
23.7925 3231.54
23.808 3192.09
23.8235 3165.8
23.839 3144.24
23.8545 3135.03
23.87 3134.74
23.8855 3137.05
23.901 3141.17
23.9165 3138.41
23.932 3128.51
23.9475 3118.9
23.963 3118.34
23.9785 3124.45
23.994 3129.33
24.0095 3130.7
24.025 3119.36
24.0405 3099.2
24.056 3092.06
24.0715 3085.41
24.087 3087.1
24.1025 3089.04
24.118 3083.81
24.1335 3084.74
24.149 3086.17
24.1645 3089.12
24.18 3095.38
24.1955 3106.83
24.211 3118.3
24.2265 3122.65
24.242 3113.87
24.2575 3093.92
24.273 3078.3
24.2885 3079.28
24.304 3085.54
24.3195 3100.89
24.335 3107.92
24.3505 3119.06
24.366 3112.51
24.3815 3101.82
24.397 3092.64
24.4125 3092.34
24.428 3093.33
24.4435 3085.46
24.459 3071.94
24.4745 3061.61
24.49 3039.19
24.5055 3031.51
24.521 3032.86
24.5365 3037.91
24.552 3032.16
24.5675 3031.92
24.583 3036.37
24.5985 3042.96
24.614 3056.31
24.6295 3069.24
24.645 3086.92
24.6605 3100.56
24.676 3094.68
24.6915 3076.07
24.707 3059.99
24.7225 3049
24.738 3044.27
24.7535 3049.89
24.769 3050.44
24.7845 3058.83
24.8 3061.31
24.8155 3056.13
24.831 3057.69
24.8465 3074.23
24.862 3086.57
24.8775 3084.46
24.893 3073.52
24.9085 3050.73
24.924 3035.29
24.9395 3021.96
24.955 3020.17
24.9705 3017.74
24.986 3020.54
